------- AERODYN v15.00.* BLADE DEFINITION INPUT FILE -------------------------------------
NREL 5.0 MW offshore baseline aerodynamic blade input properties; note that we need to add the aerodynamic center to this file
======  Blade Properties =================================================================
         300   NumBlNds           - Number of blade nodes used in the analysis (-)
  BlSpn        BlCrvAC        BlSwpAC        BlCrvAng       BlTwist        BlChord          BlAFID
   (m)           (m)            (m)            (deg)         (deg)           (m)              (-)
0    0    0    0    13.308    3.542    1
0.2056856187    -0.0001227036469    -0.0005187494245    0    13.308    3.542    1
0.4113712375    -0.0002454072937    -0.001037498849    0    13.308    3.542    1
0.6170568562    -0.0003681109406    -0.001556248273    0    13.308    3.542    1
0.8227424749    -0.0004908145874    -0.002074997698    0    13.308    3.542    1
1.028428094    -0.0006135182343    -0.002593747122    0    13.308    3.542    1
1.234113712    -0.0007362218812    -0.003112496547    0    13.308    3.542    1
1.439799331    -0.001457827556    -0.00616320068    0    13.308    3.550344123    1
1.64548495    -0.00326571125    -0.01380631996    0    13.308    3.57382267    1
1.851170569    -0.005073594944    -0.02144943923    0    13.308    3.597301217    1
2.056856187    -0.006881478639    -0.02909255851    0    13.308    3.620779765    1
2.262541806    -0.008689362333    -0.03673567779    0    13.308    3.644258312    1
2.468227425    -0.01049724603    -0.04437879707    0    13.308    3.667736859    1
2.673913043    -0.01230512972    -0.05202191634    0    13.308    3.691215406    1
2.879598662    -0.01411301341    -0.05966503562    0    13.308    3.714693953    1
3.085284281    -0.01592089711    -0.0673081549    0    13.308    3.738172501    1
3.2909699    -0.0177287808    -0.07495127418    0    13.308    3.761651048    1
3.496655518    -0.0195366645    -0.08259439345    0    13.308    3.785129595    1
3.702341137    -0.02134454819    -0.09023751273    0    13.308    3.808608142    1
3.908026756    -0.02315243189    -0.09788063201    0    13.308    3.832086689    1
4.113712375    -0.02501351913    -0.1057486779    0    13.308    3.855570253    1
4.319397993    -0.02761945614    -0.1167656957    0    13.308    3.879124052    1
4.525083612    -0.03022539314    -0.1277827135    0    13.308    3.902677851    1
4.730769231    -0.03283133015    -0.1387997312    0    13.308    3.92623165    1
4.936454849    -0.03543726716    -0.149816749    0    13.308    3.949785449    1
5.142140468    -0.03804320416    -0.1608337668    0    13.308    3.973339248    1
5.347826087    -0.04064914117    -0.1718507846    0    13.308    3.996893047    1
5.553511706    -0.04325507817    -0.1828678024    0    13.308    4.020446846    2
5.759197324    -0.04586101518    -0.1938848202    0    13.308    4.044000645    2
5.964882943    -0.04846695218    -0.204901838    0    13.308    4.067554444    2
6.170568562    -0.05107288919    -0.2159188558    0    13.308    4.091108243    2
6.376254181    -0.05367882619    -0.2269358736    0    13.308    4.114662042    2
6.581939799    -0.0562847632    -0.2379528914    0    13.308    4.138215841    2
6.787625418    -0.0588907002    -0.2489699092    0    13.308    4.16176964    2
6.993311037    -0.06179327621    -0.2612410164    0    13.308    4.185264496    2
7.198996656    -0.06478052677    -0.273870099    0    13.308    4.208742528    2
7.404682274    -0.06776777732    -0.2864991815    0    13.308    4.23222056    2
7.610367893    -0.07075502788    -0.299128264    0    13.308    4.255698592    2
7.816053512    -0.07374227843    -0.3117573466    0    13.308    4.279176624    2
8.02173913    -0.07672952899    -0.3243864291    0    13.308    4.302654655    2
8.227424749    -0.07971677954    -0.3370155117    0    13.308    4.326132687    2
8.433110368    -0.0827040301    -0.3496445942    0    13.308    4.349610719    2
8.638795987    -0.08569128065    -0.3622736768    0    13.308    4.373088751    3
8.844481605    -0.08867853121    -0.3749027593    0    13.308    4.396566783    3
9.050167224    -0.09166578176    -0.3875318418    0    13.308    4.420044814    3
9.255852843    -0.09465303232    -0.4001609244    0    13.308    4.443522846    3
9.461538462    -0.09764028287    -0.4127900069    0    13.308    4.467000878    3
9.66722408    -0.1006275334    -0.4254190895    0    13.308    4.49047891    3
9.872909699    -0.103614784    -0.438048172    0    13.308    4.513956942    3
10.07859532    -0.1066020345    -0.4506772545    0    13.308    4.537434973    3
10.28428094    -0.1091469462    -0.4621100616    0    13.29271572    4.557794314    3
10.48996656    -0.1094801634    -0.467561491    0    13.20101003    4.562560201    3
10.69565217    -0.1098133807    -0.4730129204    0    13.10930435    4.567326087    3
10.90133779    -0.1101465979    -0.4784643499    0    13.01759866    4.572091973    3
11.10702341    -0.1104798151    -0.4839157793    0    12.92589298    4.57685786    3
11.31270903    -0.1108130323    -0.4893672087    0    12.83418729    4.581623746    3
11.51839465    -0.1111462495    -0.4948186382    0    12.74248161    4.586389632    3
11.72408027    -0.1114794668    -0.5002700676    0    12.65077592    4.591155518    3
11.92976589    -0.111812684    -0.505721497    0    12.55907023    4.595921405    3
12.13545151    -0.1121459012    -0.5111729265    0    12.46736455    4.600687291    3
12.34113712    -0.1124791184    -0.5166243559    0    12.37565886    4.605453177    4
12.54682274    -0.1128123357    -0.5220757853    0    12.28395318    4.610219064    4
12.75250836    -0.1131455529    -0.5275272147    0    12.19224749    4.61498495    4
12.95819398    -0.1134787701    -0.5329786442    0    12.10054181    4.619750836    4
13.1638796    -0.1138119873    -0.5384300736    0    12.00883612    4.624516722    4
13.36956522    -0.1141452046    -0.543881503    0    11.91713043    4.629282609    4
13.57525084    -0.1144784218    -0.5493329325    0    11.82542475    4.634048495    4
13.78093645    -0.114811639    -0.5547843619    0    11.73371906    4.638814381    4
13.98662207    -0.1151448562    -0.5602357913    0    11.64201338    4.643580268    4
14.19230769    -0.1154780735    -0.5656872208    0    11.55030769    4.648346154    4
14.39799331    -0.1155296641    -0.5696166362    0    11.46457191    4.649729097    4
14.60367893    -0.11465591    -0.5685451486    0    11.39845151    4.639996656    4
14.80936455    -0.1137821559    -0.567473661    0    11.3323311    4.630264214    4
15.01505017    -0.1129084019    -0.5664021733    0    11.2662107    4.620531773    4
15.22073579    -0.1120346478    -0.5653306857    0    11.2000903    4.610799331    4
15.4264214    -0.1111608937    -0.5642591981    0    11.1339699    4.60106689    4
15.63210702    -0.1102871397    -0.5631877105    0    11.0678495    4.591334448    4
15.83779264    -0.1094133856    -0.5621162228    0    11.0017291    4.581602007    4
16.04347826    -0.1085396315    -0.5610447352    0    10.9356087    4.571869565    4
16.24916388    -0.1076658775    -0.5599732476    0    10.86948829    4.562137124    4
16.4548495    -0.1067921234    -0.55890176    0    10.80336789    4.552404682    4
16.66053512    -0.1059183694    -0.5578302723    0    10.73724749    4.542672241    4
16.86622074    -0.1050446153    -0.5567587847    0    10.67112709    4.532939799    4
17.07190635    -0.1041708612    -0.5556872971    0    10.60500669    4.523207358    4
17.27759197    -0.1032971072    -0.5546158095    0    10.53888629    4.513474916    4
17.48327759    -0.1024233531    -0.5535443218    0    10.47276589    4.503742475    4
17.68896321    -0.101549599    -0.5524728342    0    10.40664548    4.494010033    4
17.89464883    -0.100675845    -0.5514013466    0    10.34052508    4.484277592    4
18.10033445    -0.09980209091    -0.550329859    0    10.27440468    4.474545151    4
18.30602007    -0.09892833684    -0.5492583713    0    10.20828428    4.464812709    4
18.51170569    -0.09808900385    -0.5481480543    0    10.14467726    4.454854515    4
18.7173913    -0.0973299867    -0.5469471352    0    10.08693478    4.444369565    4
18.92307692    -0.09657096954    -0.5457462162    0    10.02919231    4.433884615    4
19.12876254    -0.09581195238    -0.5445452971    0    9.971449833    4.423399666    4
19.33444816    -0.09505293522    -0.543344378    0    9.913707358    4.412914716    4
19.54013378    -0.09429391807    -0.542143459    0    9.855964883    4.402429766    4
19.7458194    -0.09353490091    -0.5409425399    0    9.798222408    4.391944816    4
19.95150502    -0.09277588375    -0.5397416208    0    9.740479933    4.381459866    4
20.15719064    -0.0920168666    -0.5385407018    0    9.682737458    4.370974916    4
20.36287625    -0.09125784944    -0.5373397827    0    9.624994983    4.360489967    4
20.56856187    -0.09049883228    -0.5361388636    0    9.567252508    4.350005017    5
20.77424749    -0.08973981512    -0.5349379446    0    9.509510033    4.339520067    5
20.97993311    -0.08898079797    -0.5337370255    0    9.451767559    4.329035117    5
21.18561873    -0.08822178081    -0.5325361065    0    9.394025084    4.318550167    5
21.39130435    -0.08746276365    -0.5313351874    0    9.336282609    4.308065217    5
21.59698997    -0.08670374649    -0.5301342683    0    9.278540134    4.297580268    5
21.80267559    -0.08594472934    -0.5289333493    0    9.220797659    4.287095318    5
22.0083612    -0.08518571218    -0.5277324302    0    9.163055184    4.276610368    5
22.21404682    -0.08442669502    -0.5265315111    0    9.105312709    4.266125418    5
22.41973244    -0.08366767787    -0.5253305921    0    9.047570234    4.255640468    5
22.62541806    -0.0829063799    -0.5240490136    0    8.988632107    4.244548495    5
22.83110368    -0.08214114236    -0.5226281142    0    8.927628763    4.232408027    5
23.0367893    -0.08137590482    -0.5212072149    0    8.866625418    4.220267559    5
23.24247492    -0.08061066728    -0.5197863156    0    8.805622074    4.20812709    5
23.44816054    -0.07984542973    -0.5183654163    0    8.744618729    4.195986622    5
23.65384615    -0.07908019219    -0.5169445169    0    8.683615385    4.183846154    5
23.85953177    -0.07831495465    -0.5155236176    0    8.62261204    4.171705686    5
24.06521739    -0.07754971711    -0.5141027183    0    8.561608696    4.159565217    5
24.27090301    -0.07678447957    -0.5126818189    0    8.500605351    4.147424749    5
24.47658863    -0.07601924203    -0.5112609196    0    8.439602007    4.135284281    5
24.68227425    -0.07525400448    -0.5098400203    0    8.378598662    4.123143813    6
24.88795987    -0.07448876694    -0.5084191209    0    8.317595318    4.111003344    6
25.09364548    -0.0737235294    -0.5069982216    0    8.256591973    4.098862876    6
25.2993311    -0.07295829186    -0.5055773223    0    8.195588629    4.086722408    6
25.50501672    -0.07219305432    -0.5041564229    0    8.134585284    4.07458194    6
25.71070234    -0.07142781677    -0.5027355236    0    8.07358194    4.062441472    6
25.91638796    -0.07066257923    -0.5013146243    0    8.012578595    4.050301003    6
26.12207358    -0.06989734169    -0.4998937249    0    7.951575251    4.038160535    6
26.3277592    -0.06913210415    -0.4984728256    0    7.890571906    4.026020067    6
26.53344482    -0.06836686661    -0.4970519263    0    7.829568562    4.013879599    6
26.73913043    -0.06761714346    -0.4955772022    0    7.767804348    4.001369565    6
26.94481605    -0.06688770836    -0.4940320918    0    7.705045151    3.988376254    6
27.15050167    -0.06615827326    -0.4924869814    0    7.642285953    3.975382943    6
27.35618729    -0.06542883816    -0.4909418711    0    7.579526756    3.962389632    6
27.56187291    -0.06469940306    -0.4893967607    0    7.516767559    3.949396321    6
27.76755853    -0.06396996795    -0.4878516503    0    7.454008361    3.93640301    6
27.97324415    -0.06324053285    -0.48630654    0    7.391249164    3.923409699    6
28.17892977    -0.06251109775    -0.4847614296    0    7.328489967    3.910416388    6
28.38461538    -0.06178166265    -0.4832163192    0    7.265730769    3.897423077    6
28.590301    -0.06105222755    -0.4816712089    0    7.202971572    3.884429766    6
28.79598662    -0.06032279245    -0.4801260985    0    7.140212375    3.871436455    6
29.00167224    -0.05959335735    -0.4785809881    0    7.077453177    3.858443144    6
29.20735786    -0.05886392225    -0.4770358778    0    7.01469398    3.845449833    6
29.41304348    -0.05813448715    -0.4754907674    0    6.951934783    3.832456522    6
29.6187291    -0.05740505205    -0.473945657    0    6.889175585    3.819463211    6
29.82441472    -0.05667561695    -0.4724005467    0    6.826416388    3.8064699    6
30.03010033    -0.05594618185    -0.4708554363    0    6.763657191    3.793476589    6
30.23578595    -0.05521674675    -0.4693103259    0    6.700897993    3.780483278    6
30.44147157    -0.05448731165    -0.4677652156    0    6.638138796    3.767489967    6
30.64715719    -0.05375787655    -0.4662201052    0    6.575379599    3.754496656    6
30.85284281    -0.05307976688    -0.4647047651    0    6.514326087    3.741829431    6
31.05852843    -0.05245298265    -0.4632191952    0    6.454978261    3.729488294    6
31.26421405    -0.05182619842    -0.4617336253    0    6.395630435    3.717147157    6
31.46989967    -0.05119941419    -0.4602480554    0    6.336282609    3.70480602    6
31.67558528    -0.05057262996    -0.4587624855    0    6.276934783    3.692464883    6
31.8812709    -0.04994584573    -0.4572769156    0    6.217586957    3.680123746    6
32.08695652    -0.0493190615    -0.4557913457    0    6.15823913    3.667782609    6
32.29264214    -0.04869227727    -0.4543057758    0    6.098891304    3.655441472    6
32.49832776    -0.04806549304    -0.4528202059    0    6.039543478    3.643100334    6
32.70401338    -0.04743870881    -0.451334636    0    5.980195652    3.630759197    6
32.909699    -0.04681192458    -0.4498490661    0    5.920847826    3.61841806    7
33.11538462    -0.04618514035    -0.4483634962    0    5.8615    3.606076923    7
33.32107023    -0.04555835612    -0.4468779263    0    5.802152174    3.593735786    7
33.52675585    -0.04493157188    -0.4453923564    0    5.742804348    3.581394649    7
33.73244147    -0.04430478765    -0.4439067865    0    5.683456522    3.569053512    7
33.93812709    -0.04367800342    -0.4424212166    0    5.624108696    3.556712375    7
34.14381271    -0.04305121919    -0.4409356467    0    5.56476087    3.544371237    7
34.34949833    -0.04242443496    -0.4394500768    0    5.505413043    3.5320301    7
34.55518395    -0.04179765073    -0.4379645069    0    5.446065217    3.519688963    7
34.76086957    -0.0411708665    -0.436478937    0    5.386717391    3.507347826    7
34.96655518    -0.04058153833    -0.4349845657    0    5.327653846    3.495006689    7
35.1722408    -0.04002085303    -0.433483464    0    5.268807692    3.482665552    7
35.37792642    -0.03946016773    -0.4319823624    0    5.209961538    3.470324415    7
35.58361204    -0.03889948243    -0.4304812607    0    5.151115385    3.457983278    7
35.78929766    -0.03833879713    -0.428980159    0    5.092269231    3.44564214    7
35.99498328    -0.03777811182    -0.4274790574    0    5.033423077    3.433301003    7
36.2006689    -0.03721742652    -0.4259779557    0    4.974576923    3.420959866    7
36.40635452    -0.03665674122    -0.424476854    0    4.915730769    3.408618729    7
36.61204013    -0.03609605592    -0.4229757523    0    4.856884615    3.396277592    7
36.81772575    -0.03553537062    -0.4214746507    0    4.798038462    3.383936455    7
37.02341137    -0.03497468532    -0.419973549    0    4.739192308    3.371595318    7
37.22909699    -0.03441400002    -0.4184724473    0    4.680346154    3.359254181    7
37.43478261    -0.03385331472    -0.4169713457    0    4.6215    3.346913043    7
37.64046823    -0.03329262942    -0.415470244    0    4.562653846    3.334571906    7
37.84615385    -0.03273194412    -0.4139691423    0    4.503807692    3.322230769    7
38.05183946    -0.03217125881    -0.4124680406    0    4.444961538    3.309889632    7
38.25752508    -0.03161057351    -0.410966939    0    4.386115385    3.297548495    7
38.4632107    -0.03104988821    -0.4094658373    0    4.327269231    3.285207358    7
38.66889632    -0.03048920291    -0.4079647356    0    4.268423077    3.272866221    7
38.87458194    -0.02992851761    -0.4064636339    0    4.209576923    3.260525084    7
39.08026756    -0.02943024874    -0.4049529764    0    4.154225753    3.248183946    7
39.28595318    -0.0289681157    -0.4034367864    0    4.100897993    3.235842809    7
39.4916388    -0.02850598265    -0.4019205964    0    4.047570234    3.223501672    7
39.69732441    -0.02804384961    -0.4004044065    0    3.994242475    3.211160535    7
39.90301003    -0.02758171657    -0.3988882165    0    3.940914716    3.198819398    7
40.10869565    -0.02711958352    -0.3973720265    0    3.887586957    3.186478261    7
40.31438127    -0.02665745048    -0.3958558366    0    3.834259197    3.174137124    7
40.52006689    -0.02619531743    -0.3943396466    0    3.780931438    3.161795987    7
40.72575251    -0.02573318439    -0.3928234566    0    3.727603679    3.149454849    7
40.93143813    -0.02527105135    -0.3913072667    0    3.67427592    3.137113712    7
41.13712375    -0.0248089183    -0.3897910767    0    3.620948161    3.124772575    8
41.34280936    -0.02434678526    -0.3882748867    0    3.567620401    3.112431438    8
41.54849498    -0.02388465222    -0.3867586968    0    3.514292642    3.100090301    8
41.7541806    -0.02342251917    -0.3852425068    0    3.460964883    3.087749164    8
41.95986622    -0.02296038613    -0.3837263168    0    3.407637124    3.075408027    8
42.16555184    -0.02249825309    -0.3822101269    0    3.354309365    3.06306689    8
42.37123746    -0.02203612004    -0.3806939369    0    3.300981605    3.050725753    8
42.57692308    -0.021573987    -0.3791777469    0    3.247653846    3.038384615    8
42.7826087    -0.02111185396    -0.377661557    0    3.194326087    3.026043478    8
42.98829431    -0.02064972091    -0.376145367    0    3.140998328    3.013702341    8
43.19397993    -0.02028172911    -0.3746203718    0    3.096695652    3.001361204    8
43.39966555    -0.01995408356    -0.3730916029    0    3.05626087    2.989020067    8
43.60535117    -0.01962643801    -0.371562834    0    3.015826087    2.97667893    8
43.81103679    -0.01929879246    -0.3700340651    0    2.975391304    2.964337793    8
44.01672241    -0.01897114691    -0.3685052962    0    2.934956522    2.951996656    8
44.22240803    -0.01864350135    -0.3669765273    0    2.894521739    2.939655518    8
44.42809365    -0.0183158558    -0.3654477584    0    2.854086957    2.927314381    8
44.63377926    -0.01798821025    -0.3639189895    0    2.813652174    2.914973244    8
44.83946488    -0.0176605647    -0.3623902206    0    2.773217391    2.902632107    8
45.0451505    -0.01733291915    -0.3608614517    0    2.732782609    2.89029097    8
45.25083612    -0.0170052736    -0.3593326828    0    2.692347826    2.877949833    8
45.45652174    -0.01667762804    -0.3578039139    0    2.651913043    2.865608696    8
45.66220736    -0.01634998249    -0.356275145    0    2.611478261    2.853267559    8
45.86789298    -0.01602233694    -0.3547463761    0    2.571043478    2.840926421    8
46.0735786    -0.01569469139    -0.3532176072    0    2.530608696    2.828585284    8
46.27926421    -0.01536704584    -0.3516888383    0    2.490173913    2.816244147    8
46.48494983    -0.01503940028    -0.3501600694    0    2.44973913    2.80390301    8
46.69063545    -0.01471175473    -0.3486313005    0    2.409304348    2.791561873    8
